# Pulseq sequence file
# Created by MRD

[VERSION]
major 1
minor 4
revision 2

[DEFINITIONS]
AdcRasterTime 1e-07
BlockDurationRaster 1e-05
GradientRasterTime 1e-05
RadiofrequencyRasterTime 1e-06
TotalDuration 7

# Format of blocks:
# NUM DUR RF  GX  GY  GZ  ADC  EXT
[BLOCKS]
  1  25   0   0   0   1  0  0
  2 270   1   0   0   2  0  0
  3 355   0   4   0   3  0  0
  4 220   2   0   0   5  0  0
  5 169   0   6   7   8  0  0
  6 642   0   9   0   0  1  0
  7 169   0  10  11  12  0  0
  8 220   2   0   0   5  0  0
  9 169   0   6  13   8  0  0
 10 642   0   9   0   0  1  0
 11 169   0  10  14  12  0  0
 12 220   2   0   0   5  0  0
 13 169   0   6  15   8  0  0
 14 642   0   9   0   0  1  0
 15 169   0  10  16  12  0  0
 16 220   2   0   0   5  0  0
 17 169   0   6  17   8  0  0
 18 642   0   9   0   0  1  0
 19 169   0  10  18  12  0  0
 20 220   2   0   0   5  0  0
 21 169   0   6  19   8  0  0
 22 642   0   9   0   0  1  0
 23 169   0  10  20  12  0  0
 24 220   2   0   0   5  0  0
 25 169   0   6  21   8  0  0
 26 642   0   9   0   0  1  0
 27 169   0  10  22  12  0  0
 28 220   2   0   0   5  0  0
 29 169   0   6  23   8  0  0
 30 642   0   9   0   0  1  0
 31 169   0  10  24  12  0  0
 32 220   2   0   0   5  0  0
 33 169   0   6  25   8  0  0
 34 642   0   9   0   0  1  0
 35 169   0  10  26  12  0  0
 36 220   2   0   0   5  0  0
 37 169   0   6  27   8  0  0
 38 642   0   9   0   0  1  0
 39 169   0  10  27  12  0  0
 40 220   2   0   0   5  0  0
 41 169   0   6  26   8  0  0
 42 642   0   9   0   0  1  0
 43 169   0  10  25  12  0  0
 44 220   2   0   0   5  0  0
 45 169   0   6  24   8  0  0
 46 642   0   9   0   0  1  0
 47 169   0  10  23  12  0  0
 48 220   2   0   0   5  0  0
 49 169   0   6  22   8  0  0
 50 642   0   9   0   0  1  0
 51 169   0  10  21  12  0  0
 52 220   2   0   0   5  0  0
 53 169   0   6  20   8  0  0
 54 642   0   9   0   0  1  0
 55 169   0  10  19  12  0  0
 56 220   2   0   0   5  0  0
 57 169   0   6  18   8  0  0
 58 642   0   9   0   0  1  0
 59 169   0  10  17  12  0  0
 60 220   2   0   0   5  0  0
 61 169   0   6  16   8  0  0
 62 642   0   9   0   0  1  0
 63 169   0  10  15  12  0  0
 64 220   2   0   0   5  0  0
 65 169   0   6  14   8  0  0
 66 642   0   9   0   0  1  0
 67 169   0  10  13  12  0  0
 68 220   2   0   0   5  0  0
 69 169   0   6  11   8  0  0
 70 642   0   9   0   0  1  0
 71 169   0  10   7  12  0  0
 72 220   2   0   0   5  0  0
 73 169   0   6  28   8  0  0
 74 642   0   9   0   0  1  0
 75 169   0  10  29  12  0  0
 76 220   2   0   0   5  0  0
 77 169   0   6  30   8  0  0
 78 642   0   9   0   0  1  0
 79 169   0  10  31  12  0  0
 80 220   2   0   0   5  0  0
 81 169   0   6  32   8  0  0
 82 642   0   9   0   0  1  0
 83 169   0  10  33  12  0  0
 84 220   2   0   0   5  0  0
 85 169   0   6  34   8  0  0
 86 642   0   9   0   0  1  0
 87 169   0  10  35  12  0  0
 88 220   2   0   0   5  0  0
 89 169   0   6  36   8  0  0
 90 642   0   9   0   0  1  0
 91 169   0  10  37  12  0  0
 92 220   2   0   0   5  0  0
 93 169   0   6  38   8  0  0
 94 642   0   9   0   0  1  0
 95 169   0  10  39  12  0  0
 96 220   2   0   0   5  0  0
 97 169   0   6  40   8  0  0
 98 642   0   9   0   0  1  0
 99 169   0  10  41  12  0  0
100 220   2   0   0   5  0  0
101 169   0   6  42   8  0  0
102 642   0   9   0   0  1  0
103 169   0  10  43  12  0  0
104 220   2   0   0   5  0  0
105 169   0   6  44   8  0  0
106 642   0   9   0   0  1  0
107 169   0  10  45  12  0  0
108 220   2   0   0   5  0  0
109 169   0   6  46   8  0  0
110 642   0   9   0   0  1  0
111 169   0  10  47  12  0  0
112 220   2   0   0   5  0  0
113 169   0   6  48   8  0  0
114 642   0   9   0   0  1  0
115 169   0  10  49  12  0  0
116 220   2   0   0   5  0  0
117 169   0   6  50   8  0  0
118 642   0   9   0   0  1  0
119 169   0  10  51  12  0  0
120 220   2   0   0   5  0  0
121 169   0   6  52   8  0  0
122 642   0   9   0   0  1  0
123 169   0  10  53  12  0  0
124 220   2   0   0   5  0  0
125 169   0   6  54   8  0  0
126 642   0   9   0   0  1  0
127 169   0  10  55  12  0  0
128 220   2   0   0   5  0  0
129 169   0   6  56   8  0  0
130 642   0   9   0   0  1  0
131 169   0  10  57  12  0  0
132 220   2   0   0   5  0  0
133 169   0   6  58   8  0  0
134 642   0   9   0   0  1  0
135 169   0  10  59  12  0  0
136 220   2   0   0   5  0  0
137 169   0   6  60   8  0  0
138 642   0   9   0   0  1  0
139 169   0  10  61  12  0  0
140 220   2   0   0   5  0  0
141 169   0   6  62   8  0  0
142 642   0   9   0   0  1  0
143 169   0  10  63  12  0  0
144 220   2   0   0   5  0  0
145 169   0   6  64   8  0  0
146 642   0   9   0   0  1  0
147 169   0  10  65  12  0  0
148 220   2   0   0   5  0  0
149 169   0   6  66   8  0  0
150 642   0   9   0   0  1  0
151 169   0  10  67  12  0  0
152 220   2   0   0   5  0  0
153 169   0   6  68   8  0  0
154 642   0   9   0   0  1  0
155 169   0  10  69  12  0  0
156 220   2   0   0   5  0  0
157 169   0   6  70   8  0  0
158 642   0   9   0   0  1  0
159 169   0  10  71  12  0  0
160 220   2   0   0   5  0  0
161 169   0   6  72   8  0  0
162 642   0   9   0   0  1  0
163 169   0  10  73  12  0  0
164 220   0   0   0   5  0  0
165 169   0   0   0   8  0  0
166 150961   0   0   0   0  0  0
167 500000   0   0   0   0  0  0

# Format of RF events:
# id amplitude mag_id phase_id time_shape_id delay freq phase
# ..        Hz   ....     ....          ....    us   Hz   rad
[RF]
1      394.982 3 4 0 100 0 1.5708
2      987.454 9 10 0 100 0 0

# Format of arbitrary gradients:
#   time_shape_id of 0 means default timing (stepping with grad_raster starting at 1/2 of grad_raster)
# id amplitude amp_shape_id time_shape_id delay
# ..      Hz/m       ..         ..          us
[GRADIENTS]
1       320000 1 2 0
2       320000 5 6 0
3       320000 7 8 0
5       320000 5 11 0
6       180372 12 13 0
8       491667 14 13 0
9      38940.8 5 15 0
10       180372 16 13 0
12       491667 17 13 0

# Format of trapezoid gradients:
# id amplitude rise flat fall delay
# ..      Hz/m   us   us   us    us
[TRAP]
 4       118061 250 3050 250   0
 7     -21701.4 250 1190 250   0
11      21701.4 250 1190 250   0
13     -18988.7 250 1190 250   0
14      18988.7 250 1190 250   0
15       -16276 250 1190 250   0
16        16276 250 1190 250   0
17     -13563.4 250 1190 250   0
18      13563.4 250 1190 250   0
19     -10850.7 250 1190 250   0
20      10850.7 250 1190 250   0
21     -8138.02 250 1190 250   0
22      8138.02 250 1190 250   0
23     -5425.35 250 1190 250   0
24      5425.35 250 1190 250   0
25     -2712.67 250 1190 250   0
26      2712.67 250 1190 250   0
27            0 250 1190 250   0
28      24414.1 250 1190 250   0
29     -24414.1 250 1190 250   0
30      27126.7 250 1190 250   0
31     -27126.7 250 1190 250   0
32      29839.4 250 1190 250   0
33     -29839.4 250 1190 250   0
34      32552.1 250 1190 250   0
35     -32552.1 250 1190 250   0
36      35264.8 250 1190 250   0
37     -35264.8 250 1190 250   0
38      37977.4 250 1190 250   0
39     -37977.4 250 1190 250   0
40      40690.1 250 1190 250   0
41     -40690.1 250 1190 250   0
42      43402.8 250 1190 250   0
43     -43402.8 250 1190 250   0
44      46115.5 250 1190 250   0
45     -46115.5 250 1190 250   0
46      48828.1 250 1190 250   0
47     -48828.1 250 1190 250   0
48      51540.8 250 1190 250   0
49     -51540.8 250 1190 250   0
50      54253.5 250 1190 250   0
51     -54253.5 250 1190 250   0
52      56966.1 250 1190 250   0
53     -56966.1 250 1190 250   0
54      59678.8 250 1190 250   0
55     -59678.8 250 1190 250   0
56      62391.5 250 1190 250   0
57     -62391.5 250 1190 250   0
58      65104.2 250 1190 250   0
59     -65104.2 250 1190 250   0
60      67816.8 250 1190 250   0
61     -67816.8 250 1190 250   0
62      70529.5 250 1190 250   0
63     -70529.5 250 1190 250   0
64      73242.2 250 1190 250   0
65     -73242.2 250 1190 250   0
66      75954.9 250 1190 250   0
67     -75954.9 250 1190 250   0
68      78667.5 250 1190 250   0
69     -78667.5 250 1190 250   0
70      81380.2 250 1190 250   0
71     -81380.2 250 1190 250   0
72      84092.9 250 1190 250   0
73     -84092.9 250 1190 250   0

# Format of ADC events:
# id num dwell delay freq phase
# ..  ..    ns    us   Hz   rad
[ADC]
1 64 100000 10 0 0

# Sequence Shapes
[SHAPES]

shape_id 1
num_samples 2
0
1

shape_id 2
num_samples 2
0
25

shape_id 3
num_samples 2500
1.57976909e-10
4.26875246e-09
1.97782093e-08
5.43134e-08
1.15524074e-07
2.11082039e-07
3.48680544e-07
5.3603361e-07
7.80875439e-07
1.0909597e-06
1.47405899e-06
1.93796427e-06
2.49048344e-06
3.13944247e-06
3.89268234e-06
4.75806064e-06
5.74344904e-06
6.85673467e-06
8.10581696e-06
9.49860896e-06
1.10430365e-05
1.27470357e-05
1.46185548e-05
1.66655518e-05
1.88959948e-05
2.1317861e-05
2.3939132e-05
2.67678042e-05
2.98118757e-05
3.30793482e-05
3.65782398e-05
4.03165614e-05
4.43023309e-05
4.85435739e-05
5.30483194e-05
5.7824589e-05
6.28804119e-05
6.82238242e-05
7.38628514e-05
7.98055262e-05
8.60598666e-05
9.26339053e-05
9.95356604e-05
0.00010677315
0.000114354392
0.000122287383
0.000130580142
0.00013924067
0.000148276929
0.000157696923
0.00016750861
0.000177719965
0.000188338934
0.000199373462
0.000210831466
0.00022272089
0.000235049607
0.000247825548
0.000261056557
0.000274750491
0.000288915209
0.00030355854
0.000318688311
0.000334312266
0.000350438233
0.000367073924
0.000384227082
0.000401905447
0.000420116674
0.000438868476
0.000458168419
0.000478024216
0.000498443376
0.000519433524
0.000541002199
0.000563156907
0.00058590516
0.000609254348
0.000633211923
0.000657785393
0.000682981976
0.000708809064
0.00073527405
0.000762384036
0.000790146412
0.00081856834
0.00084765692
0.00087741937
0.000907862792
0.00093899417
0.000970820547
0.00100334897
0.00103658624
0.00107053947
0.00110521528
0.00114062068
0.00117676228
0.00121364696
0.00125128136
0.0012896721
0.00132882583
0.00136874896
0.0014094481
0.00145092979
0.00149320031
0.00153626606
0.00158013334
0.00162480841
0.00167029747
0.00171660667
0.00176374207
0.00181170984
0.00186051591
0.00191016612
0.00196066638
0.00201202277
0.00206424086
0.00211732625
0.00217128475
0.00222612172
0.00228184322
0.00233845413
0.00239596027
0.00245436653
0.00251367874
0.00257390179
0.00263504102
0.00269710133
0.00276008784
0.00282400567
0.00288885948
0.00295465393
0.00302139437
0.00308908476
0.00315773045
0.0032273354
0.00329790427
0.00336944172
0.0034419517
0.00351543864
0.00358990673
0.00366536016
0.00374180288
0.00381923886
0.00389767182
0.00397710595
0.00405754428
0.00413899124
0.00422145054
0.00430492451
0.00438941782
0.00447493279
0.00456147315
0.00464904215
0.00473764306
0.0048272782
0.0049179513
0.00500966422
0.00510242069
0.00519622304
0.00529107312
0.00538697466
0.00548392907
0.00558193913
0.00568100717
0.00578113459
0.00588232419
0.00598457782
0.00608789735
0.00619228417
0.00629774015
0.00640426716
0.00651186612
0.00662053889
0.0067302864
0.00684111053
0.00695301173
0.00706599094
0.00718004955
0.00729518849
0.00741140777
0.00752870878
0.00764709152
0.00776655646
0.00788710453
0.00800873525
0.00813144911
0.00825524516
0.00838012528
0.00850608759
0.00863313209
0.0087612588
0.0088904677
0.00902075786
0.00915212743
0.0092845764
0.00941810478
0.00955271069
0.00968839228
0.00982514955
0.00996298064
0.0101018846
0.0102418587
0.0103829028
0.0105250133
0.0106681902
0.0108124306
0.0109577319
0.0111040929
0.0112515111
0.0113999834
0.0115495073
0.0117000807
0.011851701
0.0120043643
0.0121580688
0.0123128109
0.0124685867
0.0126253935
0.0127832284
0.012942086
0.0131019652
0.0132628595
0.0134247672
0.0135876834
0.0137516037
0.0139165232
0.0140824392
0.0142493462
0.0144172395
0.0145861153
0.0147559671
0.0149267912
0.015098582
0.0152713349
0.0154450433
0.0156197026
0.0157953072
0.0159718525
0.0161493309
0.016327735
0.0165070631
0.0166873056
0.0168684591
0.017050514
0.0172334649
0.0174173061
0.0176020302
0.0177876297
0.0179740991
0.0181614291
0.018349614
0.0185386464
0.018728517
0.0189192202
0.0191107467
0.0193030909
0.0194962434
0.0196901951
0.0198849384
0.020080464
0.0202767663
0.0204738341
0.0206716601
0.0208702348
0.0210695472
0.0212695915
0.0214703567
0.0216718335
0.0218740143
0.0220768861
0.0222804416
0.0224846695
0.0226895604
0.0228951052
0.0231012907
0.0233081095
0.0235155504
0.0237236023
0.0239322558
0.0241414979
0.0243513174
0.0245617051
0.0247726496
0.0249841381
0.0251961611
0.0254087057
0.0256217588
0.025835311
0.0260493495
0.026263861
0.0264788345
0.0266942587
0.0269101188
0.0271264035
0.0273430999
0.027560195
0.0277776755
0.0279955287
0.0282137413
0.0284323003
0.0286511909
0.0288704019
0.0290899165
0.0293097254
0.02952981
0.029750159
0.0299707558
0.0301915891
0.0304126423
0.0306339022
0.0308553539
0.0310769808
0.0312987715
0.0315207057
0.031742774
0.0319649577
0.0321872421
0.0324096121
0.0326320492
0.0328545459
0.0330770761
0.0332996286
0.0335221887
0.0337447412
0.033967264
0.0341897458
0.034412168
0.0346345119
0.0348567665
0.0350789092
0.0353009254
0.0355227962
0.0357445106
0.0359660424
0.0361873806
0.0364085026
0.0366293974
0.0368500426
0.0370704196
0.0372905135
0.0375103019
0.0377297737
0.0379489027
0.0381676741
0.0383860692
0.0386040732
0.03882166
0.0390388146
0.0392555185
0.0394717492
0.039687492
0.0399027281
0.0401174314
0.0403315909
0.0405451804
0.0407581851
0.0409705825
0.0411823504
0.0413934737
0.0416039303
0.0418136977
0.042022761
0.0422310941
0.0424386822
0.0426454991
0.0428515263
0.0430567451
0.0432611331
0.0434646681
0.0436673313
0.0438691005
0.0440699533
0.044269871
0.0444688275
0.0446668081
0.0448637865
0.0450597405
0.0452546515
0.0454484969
0.0456412546
0.0458329022
0.0460234135
0.0462127738
0.0464009568
0.046587944
0.0467737056
0.046958223
0.0471414775
0.0473234393
0.0475040898
0.0476834066
0.0478613637
0.0480379425
0.0482131168
0.0483868644
0.0485591628
0.048729986
0.0488993153
0.0490671247
0.0492333882
0.0493980832
0.0495611914
0.0497226827
0.0498825386
0.0500407331
0.05019724
0.050352037
0.050505098
0.0506564043
0.05080593
0.0509536453
0.0510995351
0.051243566
0.0513857193
0.0515259728
0.0516642928
0.0518006645
0.0519350581
0.0520674475
0.052197814
0.0523261279
0.0524523668
0.0525765046
0.0526985154
0.0528183766
0.0529360622
0.0530515462
0.0531648062
0.0532758124
0.0533845462
0.0534909777
0.053595081
0.0536968336
0.0537962094
0.0538931824
0.0539877303
0.0540798232
0.0541694351
0.0542565435
0.0543411262
0.0544231497
0.0545025915
0.0545794293
0.0546536334
0.0547251813
0.0547940433
0.054860197
0.0549236163
0.0549842753
0.0550421439
0.0550972037
0.0551494248
0.0551987812
0.0552452467
0.0552887954
0.0553294048
0.0553670451
0.055401694
0.055433318
0.0554619022
0.0554874092
0.0555098206
0.0555291101
0.0555452481
0.0555582121
0.0555679761
0.0555745102
0.0555777885
0.0555777922
0.0555744842
0.0555678494
0.0555578545
0.055544477
0.0555276908
0.0555074662
0.0554837845
0.0554566123
0.055425927
0.0553917028
0.0553539097
0.0553125292
0.0552675314
0.0552188866
0.0551665761
0.05511057
0.0550508425
0.054987371
0.0549201258
0.0548490807
0.0547742136
0.0546954945
0.0546129048
0.054526411
0.054435987
0.054341618
0.0542432666
0.0541409105
0.0540345274
0.0539240912
0.0538095757
0.0536909513
0.0535681993
0.0534412898
0.0533102006
0.0531749018
0.0530353747
0.052891586
0.0527435206
0.052591145
0.052434437
0.0522733741
0.0521079265
0.0519380756
0.0517637916
0.0515850484
0.0514018275
0.0512140989
0.0510218404
0.0508250259
0.050623633
0.0504176356
0.0502070077
0.0499917306
0.0497717746
0.0495471209
0.0493177399
0.0490836091
0.0488447063
0.048601009
0.0483524874
0.0480991229
0.0478408895
0.0475777648
0.0473097265
0.0470367484
0.0467588082
0.0464758836
0.0461879484
0.0458949842
0.0455969647
0.0452938676
0.0449856706
0.0446723476
0.0443538837
0.0440302491
0.0437014215
0.0433673859
0.0430281125
0.042683579
0.0423337705
0.0419786572
0.0416182205
0.041252438
0.040881291
0.0405047536
0.040122807
0.0397354253
0.0393425934
0.0389442891
0.0385404862
0.03813117
0.0377163179
0.037295904
0.0368699133
0.0364383273
0.036001116
0.0355582722
0.0351097621
0.0346555784
0.0341956913
0.0337300859
0.0332587436
0.0327816382
0.0322987586
0.0318100825
0.0313155875
0.0308152568
0.0303090736
0.0297970176
0.0292790681
0.0287552103
0.0282254238
0.0276896898
0.0271479897
0.0266003087
0.0260466263
0.0254869256
0.0249211881
0.0243493989
0.0237715393
0.0231875908
0.0225975383
0.0220013652
0.0213990528
0.0207905862
0.0201759487
0.0195551235
0.0189280957
0.0182948485
0.0176553652
0.0170096327
0.0163576342
0.0156993549
0.015034779
0.0143638914
0.0136866784
0.0130031239
0.0123132141
0.011616935
0.0109142726
0.010205212
0.00948974025
0.00876784232
0.00803950708
0.00730471872
0.00656346558
0.00581573462
0.00506151281
0.00430078711
0.00353354588
0.00275977631
0.00197946653
0.00119260431
0.000399178156
0.000400823483
0.00120741199
0.00202059862
0.00284039439
0.00366680999
0.00449985638
0.00533954334
0.00618588226
0.007038882
0.00789855327
0.00876490586
0.00963794813
0.0105176913
0.0114041427
0.0122973127
0.0131972088
0.0141038401
0.0150172152
0.0159373432
0.016864229
0.0177978836
0.0187383126
0.0196855236
0.0206395257
0.0216003228
0.0225679241
0.0235423353
0.0245235637
0.0255116131
0.026506491
0.0275082048
0.0285167564
0.029532155
0.0305544026
0.0315835029
0.0326194689
0.0336622931
0.0347119905
0.0357685573
0.0368320011
0.0379023291
0.0389795378
0.0400636308
0.0411546193
0.0422524959
0.043357268
0.0444689393
0.0455875099
0.0467129834
0.0478453599
0.0489846431
0.0501308292
0.051283922
0.0524439253
0.0536108389
0.0547846593
0.0559653901
0.0571530275
0.0583475754
0.0595490336
0.0607573949
0.0619726665
0.0631948411
0.0644239262
0.0656599104
0.0669027939
0.0681525692
0.0694092512
0.070672825
0.0719432831
0.0732206404
0.0745048746
0.0757959858
0.0770939812
0.0783988535
0.0797105879
0.0810291916
0.0823546499
0.0836869702
0.0850261375
0.086372152
0.087725006
0.0890846923
0.0904512033
0.091824539
0.0932046846
0.0945916474
0.0959854051
0.0973859578
0.098793298
0.100207418
0.101628304
0.103055961
0.104490362
0.105931513
0.107379407
0.108834021
0.110295355
0.111763395
0.113238141
0.11471957
0.116207682
0.117702454
0.119203888
0.120711967
0.122226685
0.123748019
0.12527597
0.126810521
0.128351659
0.129899368
0.131453633
0.133014455
0.134581819
0.136155695
0.137736082
0.139322966
0.140916333
0.142516166
0.144122452
0.145735174
0.147354305
0.148979858
0.150611788
0.152250096
0.153894767
0.155545786
0.157203123
0.158866763
0.160536706
0.162212923
0.163895383
0.165584102
0.167279035
0.168980166
0.170687482
0.172400966
0.17412059
0.175846338
0.177578211
0.179316163
0.18106018
0.182810247
0.184566349
0.186328441
0.188096538
0.189870596
0.191650584
0.193436503
0.195228323
0.197026014
0.198829576
0.200638965
0.20245415
0.204275131
0.206101879
0.207934365
0.209772572
0.211616471
0.213466033
0.215321243
0.21718207
0.219048485
0.220920473
0.222798005
0.224681064
0.226569608
0.22846362
0.230363071
0.232267931
0.234178185
0.236093804
0.238014743
0.239940986
0.241872519
0.243809298
0.245751292
0.247698486
0.249650836
0.251608312
0.253570914
0.255538583
0.257511318
0.259489059
0.261471778
0.263459474
0.265452087
0.267449588
0.269451976
0.271459162
0.273471206
0.275487989
0.277509511
0.279535741
0.28156665
0.283602208
0.285642385
0.287687153
0.28973645
0.291790247
0.293848544
0.295911282
0.297978431
0.300049961
0.302125812
0.304206014
0.306290448
0.308379143
0.310472071
0.312569141
0.314670324
0.31677565
0.318884999
0.3209984
0.323115796
0.325237125
0.327362388
0.329491526
0.331624508
0.333761305
0.335901856
0.338046163
0.340194136
0.342345774
0.344501019
0.346659869
0.348822236
0.35098812
0.353157461
0.355330229
0.357506365
0.359685868
0.36186868
0.364054739
0.366244018
0.368436515
0.370632112
0.372830838
0.375032634
0.377237439
0.379445255
0.381655961
0.383869618
0.386086106
0.388305396
0.390527487
0.39275229
0.394979775
0.397209942
0.399442673
0.401677996
0.403915823
0.406156123
0.408398867
0.410643995
0.412891448
0.415141225
0.417393267
0.419647515
0.421903908
0.424162447
0.426423073
0.428685725
0.430950373
0.433216959
0.435485452
0.437755793
0.440027952
0.442301899
0.444577545
0.44685486
0.449133813
0.451414347
0.4536964
0.455979943
0.458264947
0.460551351
0.462839097
0.465128154
0.467418462
0.469709963
0.472002655
0.474296451
0.476591319
0.478887171
0.481184036
0.483481824
0.485780478
0.488079965
0.490380228
0.492681205
0.494982898
0.497285217
0.499588132
0.501891553
0.504195511
0.506499887
0.508804679
0.511109769
0.513415158
0.515720844
0.51802665
0.520332694
0.522638738
0.524944901
0.527251065
0.529557109
0.531863093
0.534168959
0.536474586
0.538779974
0.541085005
0.543389738
0.545694053
0.547997952
0.550301313
0.552604139
0.554906368
0.557207882
0.559508741
0.561808825
0.564108133
0.566406548
0.568704069
0.571000636
0.573296189
0.57559067
0.577884078
0.580176294
0.582467258
0.58475703
0.587045431
0.589332461
0.591618121
0.59390223
0.596184909
0.598465919
0.60074538
0.603023112
0.605299115
0.60757339
0.609845757
0.612116277
0.61438489
0.616651475
0.618916035
0.621178448
0.623438776
0.625696898
0.627952754
0.630206347
0.632457554
0.634706378
0.636952758
0.639196575
0.641437888
0.643676579
0.645912588
0.648145914
0.650376439
0.652604163
0.654828966
0.657050908
0.659269869
0.661485791
0.663698614
0.665908337
0.668114901
0.670318186
0.672518194
0.674714863
0.676908135
0.67909801
0.681284308
0.68346715
0.685646355
0.687821925
0.689993799
0.692161858
0.694326162
0.696486652
0.698643208
0.70079577
0.702944338
0.705088854
0.707229316
0.709365547
0.711497545
0.713625312
0.715748787
0.717867851
0.719982564
0.722092748
0.724198401
0.726299524
0.728395998
0.730487823
0.73257494
0.734657228
0.736734748
0.73880738
0.740875065
0.742937803
0.744995475
0.74704814
0.749095619
0.751137972
0.75317502
0.755206883
0.757233381
0.759254515
0.761270225
0.763280451
0.765285134
0.767284274
0.769277811
0.771265686
0.773247778
0.775224149
0.777194679
0.779159367
0.781118155
0.783070982
0.785017788
0.786958516
0.788893163
0.790821612
0.792743921
0.794659972
0.796569705
0.79847306
0.800370097
0.802260637
0.804144681
0.806022227
0.807893217
0.809757531
0.811615229
0.813466132
0.815310359
0.817147672
0.81897819
0.820801795
0.822618484
0.824428141
0.826230705
0.828026235
0.829814672
0.831595898
0.833369911
0.835136652
0.836896062
0.83864814
0.840392828
0.842130005
0.843859792
0.845582008
0.847296655
0.849003673
0.850703001
0.85239464
0.854078591
0.855754673
0.857423007
0.859083414
0.860735893
0.862380445
0.86401695
0.865645468
0.86726588
0.868878126
0.870482266
0.87207818
0.873665869
0.875245214
0.876816273
0.878378928
0.879933238
0.881479025
0.883016348
0.884545147
0.886065423
0.887577057
0.889080048
0.890574336
0.892059922
0.893536747
0.895004749
0.896463931
0.897914231
0.89935565
0.900788128
0.902211607
0.903626025
0.905031443
0.906427741
0.90781486
0.90919286
0.910561681
0.911921263
0.913271546
0.914612532
0.915944159
0.917266428
0.91857928
0.919882715
0.921176612
0.922461033
0.923735917
0.925001204
0.926256895
0.92750293
0.928739309
0.929965973
0.931182861
0.932390034
0.933587372
0.934774876
0.935952485
0.937120259
0.938278079
0.939425945
0.940563798
0.941691637
0.942809463
0.943917215
0.945014834
0.946102381
0.947179675
0.948246837
0.949303806
0.950350463
0.951386869
0.952413023
0.953428805
0.954434216
0.955429316
0.956413984
0.957388163
0.95835197
0.959305227
0.960247993
0.96118027
0.962101936
0.963013053
0.96391356
0.964803457
0.965682685
0.966551244
0.967409134
0.968256235
0.969092667
0.969918311
0.970733166
0.971537173
0.972330391
0.973112762
0.973884284
0.97464484
0.975394547
0.976133347
0.976861119
0.977577984
0.978283823
0.978978693
0.979662538
0.980335355
0.980997086
0.98164773
0.982287288
0.982915699
0.983533025
0.984139204
0.984734237
0.985318065
0.985890687
0.986452162
0.987002373
0.987541318
0.988069057
0.988585532
0.989090741
0.989584625
0.990067184
0.990538478
0.990998447
0.991447031
0.991884291
0.992310166
0.992724657
0.993127823
0.993519545
0.993899822
0.994268715
0.994626224
0.994972229
0.99530679
0.995629966
0.995941579
0.996241808
0.996530473
0.996807694
0.997073472
0.997327685
0.997570395
0.997801602
0.998021245
0.998229384
0.99842602
0.998611093
0.998784602
0.998946607
0.999097049
0.999235928
0.999363244
0.999478996
0.999583185
0.99967581
0.999756813
0.999826312
0.999884188
0.999930501
0.99996525
0.999988437
1
1
0.999988437
0.99996525
0.999930501
0.999884188
0.999826312
0.999756813
0.99967581
0.999583185
0.999478996
0.999363244
0.999235928
0.999097049
0.998946607
0.998784602
0.998611093
0.99842602
0.998229384
0.998021245
0.997801602
0.997570395
0.997327685
0.997073472
0.996807694
0.996530473
0.996241808
0.995941579
0.995629966
0.99530679
0.994972229
0.994626224
0.994268715
0.993899822
0.993519545
0.993127823
0.992724657
0.992310166
0.991884291
0.991447031
0.990998447
0.990538478
0.990067184
0.989584625
0.989090741
0.988585532
0.988069057
0.987541318
0.987002373
0.986452162
0.985890687
0.985318065
0.984734237
0.984139204
0.983533025
0.982915699
0.982287288
0.98164773
0.980997086
0.980335355
0.979662538
0.978978693
0.978283823
0.977577984
0.976861119
0.976133347
0.975394547
0.97464484
0.973884284
0.973112762
0.972330391
0.971537173
0.970733166
0.969918311
0.969092667
0.968256235
0.967409134
0.966551244
0.965682685
0.964803457
0.96391356
0.963013053
0.962101936
0.96118027
0.960247993
0.959305227
0.95835197
0.957388163
0.956413984
0.955429316
0.954434216
0.953428805
0.952413023
0.951386869
0.950350463
0.949303806
0.948246837
0.947179675
0.946102381
0.945014834
0.943917215
0.942809463
0.941691637
0.940563798
0.939425945
0.938278079
0.937120259
0.935952485
0.934774876
0.933587372
0.932390034
0.931182861
0.929965973
0.928739309
0.92750293
0.926256895
0.925001204
0.923735917
0.922461033
0.921176612
0.919882715
0.91857928
0.917266428
0.915944159
0.914612532
0.913271546
0.911921263
0.910561681
0.90919286
0.90781486
0.906427741
0.905031443
0.903626025
0.902211607
0.900788128
0.89935565
0.897914231
0.896463931
0.895004749
0.893536747
0.892059922
0.890574336
0.889080048
0.887577057
0.886065423
0.884545147
0.883016348
0.881479025
0.879933238
0.878378928
0.876816273
0.875245214
0.873665869
0.87207818
0.870482266
0.868878126
0.86726588
0.865645468
0.86401695
0.862380445
0.860735893
0.859083414
0.857423007
0.855754673
0.854078591
0.85239464
0.850703001
0.849003673
0.847296655
0.845582008
0.843859792
0.842130005
0.840392828
0.83864814
0.836896062
0.835136652
0.833369911
0.831595898
0.829814672
0.828026235
0.826230705
0.824428141
0.822618484
0.820801795
0.81897819
0.817147672
0.815310359
0.813466132
0.811615229
0.809757531
0.807893217
0.806022227
0.804144681
0.802260637
0.800370097
0.79847306
0.796569705
0.794659972
0.792743921
0.790821612
0.788893163
0.786958516
0.785017788
0.783070982
0.781118155
0.779159367
0.777194679
0.775224149
0.773247778
0.771265686
0.769277811
0.767284274
0.765285134
0.763280451
0.761270225
0.759254515
0.757233381
0.755206883
0.75317502
0.751137972
0.749095619
0.74704814
0.744995475
0.742937803
0.740875065
0.73880738
0.736734748
0.734657228
0.73257494
0.730487823
0.728395998
0.726299524
0.724198401
0.722092748
0.719982564
0.717867851
0.715748787
0.713625312
0.711497545
0.709365547
0.707229316
0.705088854
0.702944338
0.70079577
0.698643208
0.696486652
0.694326162
0.692161858
0.689993799
0.687821925
0.685646355
0.68346715
0.681284308
0.67909801
0.676908135
0.674714863
0.672518194
0.670318186
0.668114901
0.665908337
0.663698614
0.661485791
0.659269869
0.657050908
0.654828966
0.652604163
0.650376439
0.648145914
0.645912588
0.643676579
0.641437888
0.639196575
0.636952758
0.634706378
0.632457554
0.630206347
0.627952754
0.625696898
0.623438776
0.621178448
0.618916035
0.616651475
0.61438489
0.612116277
0.609845757
0.60757339
0.605299115
0.603023112
0.60074538
0.598465919
0.596184909
0.59390223
0.591618121
0.589332461
0.587045431
0.58475703
0.582467258
0.580176294
0.577884078
0.57559067
0.573296189
0.571000636
0.568704069
0.566406548
0.564108133
0.561808825
0.559508741
0.557207882
0.554906368
0.552604139
0.550301313
0.547997952
0.545694053
0.543389738
0.541085005
0.538779974
0.536474586
0.534168959
0.531863093
0.529557109
0.527251065
0.524944901
0.522638738
0.520332694
0.51802665
0.515720844
0.513415158
0.511109769
0.508804679
0.506499887
0.504195511
0.501891553
0.499588132
0.497285217
0.494982898
0.492681205
0.490380228
0.488079965
0.485780478
0.483481824
0.481184036
0.478887171
0.476591319
0.474296451
0.472002655
0.469709963
0.467418462
0.465128154
0.462839097
0.460551351
0.458264947
0.455979943
0.4536964
0.451414347
0.449133813
0.44685486
0.444577545
0.442301899
0.440027952
0.437755793
0.435485452
0.433216959
0.430950373
0.428685725
0.426423073
0.424162447
0.421903908
0.419647515
0.417393267
0.415141225
0.412891448
0.410643995
0.408398867
0.406156123
0.403915823
0.401677996
0.399442673
0.397209942
0.394979775
0.39275229
0.390527487
0.388305396
0.386086106
0.383869618
0.381655961
0.379445255
0.377237439
0.375032634
0.372830838
0.370632112
0.368436515
0.366244018
0.364054739
0.36186868
0.359685868
0.357506365
0.355330229
0.353157461
0.35098812
0.348822236
0.346659869
0.344501019
0.342345774
0.340194136
0.338046163
0.335901856
0.333761305
0.331624508
0.329491526
0.327362388
0.325237125
0.323115796
0.3209984
0.318884999
0.31677565
0.314670324
0.312569141
0.310472071
0.308379143
0.306290448
0.304206014
0.302125812
0.300049961
0.297978431
0.295911282
0.293848544
0.291790247
0.28973645
0.287687153
0.285642385
0.283602208
0.28156665
0.279535741
0.277509511
0.275487989
0.273471206
0.271459162
0.269451976
0.267449588
0.265452087
0.263459474
0.261471778
0.259489059
0.257511318
0.255538583
0.253570914
0.251608312
0.249650836
0.247698486
0.245751292
0.243809298
0.241872519
0.239940986
0.238014743
0.236093804
0.234178185
0.232267931
0.230363071
0.22846362
0.226569608
0.224681064
0.222798005
0.220920473
0.219048485
0.21718207
0.215321243
0.213466033
0.211616471
0.209772572
0.207934365
0.206101879
0.204275131
0.20245415
0.200638965
0.198829576
0.197026014
0.195228323
0.193436503
0.191650584
0.189870596
0.188096538
0.186328441
